#x [cm] D(x) [micrometer]
3, 3.0
5, 8.0
7, 16.0
9, 25.0
11, 36.0
13, 49.0
15, 63.0
17, 79.0
19, 97.0
21, 112.0
23, 135.5
25, 152.0
27, 178.5
29, 197.0
31, 222.5
33, 243.0
35, 280.0
37, 301.0
39, 316.5
41, 335.0
43, 364.0
45, 381.0
47, 406.0
49, 433.5