#U_0 = 5V; volt/div = 5V; time/div = 0.2 ms;
#U_C [V] f [kHz] a [ms]
05.0 05.00 0.00
06.0 10.00 0.02
06.5 12.50 0.02
07.0 15.00 0.02
08.0 17.50 0.02
09.5 19.00 0.02
10.4 20.00 0.03
11.0 20.50 0.03
11.5 21.00 0.03
12.0 21.50 0.04
13.0 22.00 0.04
13.4 22.25 0.04
13.9 22.50 0.04
14.0 22.75 0.04
14.5 22.90 0.04
14.7 23.00 0.04
14.9 23.10 0.04
15.0 23.20 0.04
15.2 23.30 0.04
15.3 23.40 0.04
15.8 23.60 0.04
16.0 23.80 0.05
16.2 24.00 0.05
16.8 24.20 0.05
17.0 24.40 0.05
17.4 24.60 0.05
17.5 24.80 0.06
17.9 25.00 0.06
18.0 25.20 0.06
18.1 25.40 0.06
18.2 25.60 0.06
18.3 25.80 0.06
18.2 26.00 0.07
18.2 26.20 0.07
18.1 26.40 0.08
18.0 26.60 0.08
17.7 26.80 0.08
17.4 27.00 0.08
17.1 27.20 0.08
16.7 27.40 0.08
16.3 27.60 0.08
16.0 27.80 0.09
15.5 28.00 0.09
15.1 28.20 0.09
14.8 28.40 0.09
14.1 28.60 0.10
14.0 28.80 0.10
13.5 29.00 0.10
13.0 29.20 0.10
12.6 29.40 0.10
12.1 29.60 0.10
11.9 29.80 0.10
11.5 30.00 0.10
11.0 30.30 0.10
10.4 30.60 0.10
09.9 31.00 0.10
09.2 31.50 0.10
08.5 32.00 0.10
08.0 32.50 0.10
07.5 33.00 0.10
07.0 33.50 0.10
06.5 34.00 0.10
06.1 34.50 0.10
06.0 35.00 0.10
05.0 36.00 0.10
04.4 38.00 0.10
03.2 40.00 0.10
02.1 45.00 0.08
01.5 50.00 0.08
01.1 55.00 0.08
00.9 60.00 0.06
00.6 65.00 0.06
00.4 70.00 0.06
00.1 100.00 0.1
